Time(s),Displacement(inch),Velocity(inch/s),Acceleration(inch/s^2)
0.0,0.0,0.0,0.00037942432399291264
0.02,8.813880148170658e-08,9.426576982326863e-06,0.0005632333742397734
0.04,4.390190188716101e-07,2.814654490143408e-05,0.0013087634176709476
0.06,1.2016165825941098e-06,4.500891057879731e-05,0.00037747315006537405
0.08,2.1786973021440597e-06,5.276955527424414e-05,0.00039859131947930754
0.1,3.3024709330289305e-06,5.9041020889449275e-05,0.0002285552420412048
0.12,4.542892362974291e-06,6.569562029249346e-05,0.00043690469826321114
0.14,5.909929149159011e-06,6.929523036008879e-05,-7.694369150368008e-05
0.16,7.279320556541085e-06,6.75876873021704e-05,-9.381061428815775e-05
0.18,8.689297848130871e-06,7.725932527700853e-05,0.0010609744117719697
0.2,1.0414187061981398e-05,9.360498740584221e-05,0.000573591801111398
0.22,1.2421548149734692e-05,0.00010815827034019597,0.0008817364923239682
0.24,1.4710568375155355e-05,0.00011821912820946757,0.00012434929460318606
0.26,1.7195886935973203e-05,0.00013511603475771018,0.001565341360221068
0.28,2.0157193384715766e-05,0.0001583104841937532,0.0007541035833832276
0.3,2.346830993448594e-05,0.00017250547824418814,0.0006653958216602542
0.32,2.6937134581325552e-05,0.00016865878232096267,-0.001050065413982796
0.34,3.0128546325786074e-05,0.00015189485116698083,-0.000626327701415399
0.36,3.308193010978449e-05,0.00014548114227995384,-1.5043187287303631e-05
0.38,3.5935688348979664e-05,0.000137251883192242,-0.000807882721483888
0.4,3.8527577995064224e-05,0.00012235850774303808,-0.0006814548234365006
0.42,4.0690898212402376e-05,8.659556534901334e-05,-0.0028948394159659767
0.44,4.2154669213061156e-05,7.53229135604497e-05,0.0017675742371096065
0.46,4.387075233026724e-05,8.909089808891799e-05,-0.00039077578426278096
0.48,4.5631148649227785e-05,8.978540950887272e-05,0.00046022692625825314
0.5,4.7227348773692985e-05,5.525693038945206e-05,-0.003913074838200325
0.52,4.777904244235428e-05,1.137093790229298e-05,-0.0004755244105155851
0.54,4.7909065072219956e-05,1.5167627804216917e-06,-0.0005098931016715448
0.56,4.7727045910201184e-05,-2.5237468846944513e-05,-0.0021655300610650755
0.58,4.666311940688061e-05,-8.745873719354692e-05,-0.004056596773595163
0.6,4.413795619455555e-05,-0.00016329103972571288,-0.0035266334796214263
0.62,4.082246327247431e-05,-0.00013547552406454586,0.006308185045738139
0.64,3.855791921618317e-05,-0.00013181241077196004,-0.005941873716479553
0.66,3.500778216079841e-05,-0.0002094769995989989,-0.001824585166224325
0.68,3.055172843732757e-05,-0.00023120820766038563,-0.00034853563991433205
0.7,2.6066125309301273e-05,-0.00020693869748402972,0.0027754866575499413
0.72,2.2269492325353228e-05,-0.00018337241919964644,-0.00041885882911159853
0.74,1.8370706180562352e-05,-0.00021388449502822288,-0.002632348753746038
0.76,1.3998152773971337e-05,-0.00020179053339474594,0.003841744917093738
0.78,1.0312719961643978e-05,-0.0001876513042305493,-0.0024278220006740603
0.8,6.2180218438533825e-06,-0.0002146238892007502,-0.00026943649634602387
0.82,1.9032916276090244e-06,-0.0002152673890716933,0.00020508650925172585
0.84,-2.392771005815909e-06,-0.0002159254819628707,-0.00027089579836946277
0.86,-6.66329024256464e-06,-0.00020601796360287373,0.0012616476343691718
0.88,-1.0836121625104059e-05,-0.00022650525651885718,-0.003310376925967513
0.9,-1.5689051104753945e-05,-0.00024182513965009342,0.0017783886128439014
0.92,-2.015470309353965e-05,-0.00020398140514610788,0.0020059848375546595
0.94,-2.3909471923465158e-05,-0.00017531236257215666,0.0008609194198404681
0.96,-2.7148107547028647e-05,-0.00014377981258861548,0.0022923355785136566
0.98,-2.9668047768339056e-05,-0.00011335476380446706,0.0007501692999011874
1.0,-3.173849628049827e-05,-9.13594422139599e-05,0.0014493628591495302
1.02,-3.3454324095835064e-05,-8.914891646409432e-05,-0.001228310284162968
1.04,-3.503460767225984e-05,-4.646160069389909e-05,0.005497041861182497
1.06,-3.5248774141562186e-05,5.827812380621482e-06,-0.00026810055373044004
1.08,-3.524613797516311e-05,-8.579194264077234e-06,-0.0011726001107394317
1.1,-3.530856978496164e-05,1.9519618165769174e-05,0.003982481353724072
1.12,-3.4233842368082056e-05,8.234506266315856e-05,0.002300063096014863
1.14,-3.243258074717163e-05,8.249848685009859e-05,-0.0022847206773208614
1.16,-3.146810487991989e-05,2.5216131607719723e-06,-0.005712966691611804
1.18,-3.195840529929905e-05,-2.1458622312299847e-05,0.003314943144304623
1.2,-3.208979469711914e-05,-9.940596491460156e-06,-0.0021631405622206524
1.22,-3.2643593075503386e-05,-4.1557158152510296e-05,-0.0009985156038843617
1.24,-3.3791194030552275e-05,-7.904067091346834e-05,-0.0027498356722114375
1.26,-3.5563096118284364e-05,-8.020561461076275e-05,0.0026333413024819965
1.28,-3.632671932273903e-05,1.9534335528505597e-05,0.0073406537114448405
1.3,-3.5139581973693354e-05,6.559539418539163e-05,-0.0027345478457562406
1.32,-3.45974060193249e-05,-2.2518916757951616e-05,-0.006076883248578083
1.34,-3.6385801685676473e-05,-0.00016245268395105283,-0.007916493470732032
1.36,-4.0875910757906826e-05,-0.00026944605822512736,-0.0027828439566754066
1.38,-4.668082119319864e-05,-0.00030401600927676344,-0.000674151148488202
1.4,-5.308152585290252e-05,-0.00034533216891717393,-0.0034574648155528435
1.42,-6.0912395813891004e-05,-0.00044939150815839643,-0.0069484691085694075
1.44,-7.083531290752523e-05,-0.0005201698566426457,-0.00012936573985548752
1.46,-8.097598813089186e-05,-0.0004794679128211494,0.004199560122005146
1.48,-8.983171712039214e-05,-0.000411419124002793,0.0026053187598305185
1.5,-9.779113120189666e-05,-0.0003971270518184004,-0.0011761115413912219
1.52,-0.00010599878647465077,-0.00042513307186240585,-0.0016244904630093105
1.54,-0.00011463626949216353,-0.000429111404272009,0.0012266572220490108
1.56,-0.0001232136582851535,-0.00044065208262496414,-0.0023807250573444814
1.58,-0.00013273741318982183,-0.0005234518198768791,-0.005899248667846987
1.6,-0.00014396156930075176,-0.0005777272902072611,0.0004717016348088155
1.62,-0.00015543743148214154,-0.0005706417631420303,0.00023685107171426108
1.64,-0.0001667580284294215,-0.0005591745265250782,0.0009098725899809787
1.66,-0.0001776424428215591,-0.0005234118316702899,0.0026663968954978353
1.68,-0.00018769919112302457,-0.0004883525508342233,0.0008395311881088357
1.7,-0.00019703381416163898,-0.00043188366600480587,0.004807357294832934
1.72,-0.0002043366725501929,-0.0002797349992218005,0.010407509383467616
1.74,-0.0002086299285169013,-0.0001885934903973421,-0.0012933585010217812
1.76,-0.00021272910296362042,-0.00022475560120296614,-0.0023228525795406046
1.78,-0.00021709358103490207,-0.00018193198249090496,0.0066052144507467376
1.8,-0.0002193282975814238,-3.73956615039157e-05,0.007848417647952195
1.82,-0.0002186740288437871,9.444745717381535e-05,0.005335894219820911
1.84,-0.00021585018284483513,0.0001813230432969515,0.0033516643924927014
1.86,-0.00021153934410415105,0.0002504630805837763,0.003562339336189777
1.88,-0.00020599633409263822,0.00029490194719747044,0.0008815473251796228
1.9,-0.0002000361306401072,0.0002954111502329176,-0.0008306270216349136
1.92,-0.0001946181975979624,0.00023017392607223617,-0.005693095394433246
1.94,-0.00019074428275677837,0.00017767032797745953,0.0004427355849555694
1.96,-0.0001871687373800419,0.00017656379470599434,-0.0005533889121020876
1.98,-0.00018360210998016194,0.00018740040969102874,0.0016370504106055308
2.0,-0.00017940546052916978,0.0002383260941607125,0.0034555180363628345
2.02,-0.00017382406064668523,0.00032600261368762967,0.005312133916328864
2.04,-0.00016639545625060255,0.00040916409287385417,0.0030040140022935553
2.06,-0.00015813732683210617,0.0003903510870038108,-0.004885314589297922
2.08,-0.0001513475182639426,0.00028662225710989397,-0.005487568400093772
2.1,-0.00014633490483062687,0.000233523184778512,0.00017766116695557238
2.12,-0.00014107655358405727,0.00031992970575885814,0.008462990931079018
2.14,-0.00013414923242904614,0.000314608852423166,-0.008995076264648242
2.16,-0.0001293941099587379,0.00017400142834638282,-0.005065666143030095
2.18,-0.00012665121727978672,0.00011408770658021564,-0.0009257060335866362
2.2,-0.0001242157816164905,0.00014639699666986418,0.004156635042551488
2.22,-0.00012041991983199513,0.00023501892390906756,0.004705557681368852
2.24,-0.00011429560008385777,0.00040155453758877697,0.01194800368660207
2.26,-0.00010337368350343189,0.0007156983750203073,0.019466380056550946
2.28,-8.6095081145215e-05,0.00096572980312641,0.005536762754059296
2.3,-6.593139455099848e-05,0.0010377257553390632,0.001662832467205939
2.32,-4.494675713250211e-05,0.001055615777424271,0.0001261697413148049
2.34,-2.3845119180375133e-05,0.0010527524405573568,-0.0004125034280062271
2.36,-2.907954423646257e-06,0.0010391948666746802,-0.0009432539602615142
2.38,1.6982759551951165e-05,0.0009146499025928681,-0.011511242447919701
2.4,3.3527049145588524e-05,0.0007674560583390652,-0.00320814197746059
2.42,4.900484021785888e-05,0.0008188379639370273,0.008346332537256761
2.44,6.626128419406868e-05,0.0008673273431848489,-0.0034973946124746457
2.46,8.258426800168494e-05,0.0007487668308974872,-0.008358656616261569
2.48,9.507405660848959e-05,0.0004595211953883388,-0.020565906934653284
2.5,0.00010097003026346741,0.00017101272681652638,-0.008284939922527964
2.52,0.0001027427548505186,6.7326336499056986e-06,-0.008143069394134112
2.54,0.00010177719470420478,-7.686859530554334e-05,-0.0002170535014107911
2.56,0.0001004497532663948,-4.3208490046301895e-05,0.003583064027334941
2.58,9.941836729586674e-05,-0.00010412155575995566,-0.009674370598700315
2.6,9.527043305964861e-05,-0.00031720331792580705,-0.011633805617884803
2.62,8.645927707660156e-05,-0.0005709287054265931,-0.013738733132193778
2.64,7.238550930675095e-05,-0.0008318204233024678,-0.01235043865539366
2.66,5.281828973622382e-05,-0.0011479377024201987,-0.01926128925637938
2.68,2.640175364924812e-05,-0.0014739921156421642,-0.013344152065817062
2.7,-5.530886604037766e-06,-0.0017084702860503838,-0.01010366497500484
2.72,-4.124949408567163e-05,-0.001839813900394264,-0.003030696459383102
2.74,-7.912119599853701e-05,-0.0019708205215474483,-0.010069965655935167
2.76,-0.00012073788179724581,-0.0022001621701520716,-0.012864199204527046
2.78,-0.0001670103112893279,-0.0024118980914629028,-0.008309392926555975
2.8,-0.00021626190213389047,-0.0024808485144930154,0.0014143506235448522
2.82,-0.0002643206113739316,-0.002261252863255584,0.020545214500198385
2.84,-0.00030622684127344223,-0.0019688809034174156,0.008691981483618562
2.86,-0.00034362584627286,-0.0017590087579140194,0.012295233066721239
2.88,-0.00037652656711412104,-0.0015400429410283335,0.009601348621847375
2.9,-0.0004059985976518106,-0.0014367321848152417,0.0007297269994618879
2.92,-0.00043490317613088255,-0.0014695196722249277,-0.004008475740430456
2.94,-0.0004646987400181093,-0.0014902104812298555,0.0019393948399377549
2.96,-0.0004925852286379306,-0.0012219462789128535,0.02488702539176244
2.98,-0.0005125187517530873,-0.0007950061633654257,0.017806986162980442
3.0,-0.0005250157544190567,-0.00046260793479436135,0.015432836694126041
3.02,-0.0005316479419657324,-0.00022394062935388856,0.008433893849921261
3.04,-0.000534526720866544,-6.827451491317948e-05,0.007132717594149659
3.06,-0.0005338186067312166,0.00017143897418398218,0.016838631315566507
3.08,-0.0005269065546474579,0.0005255435510401732,0.018571826370052585
3.1,-0.0005121881162807251,0.000970960389229062,0.025969857448836262
3.12,-0.00048799499451681694,0.0014273489116397205,0.019668994792229496
3.14,-0.0004569564208257297,0.0016043982824613479,-0.0019640577100667874
3.16,-0.000426720023245191,0.0013463036492587788,-0.02384540561019023
3.18,-0.0004045851541886317,0.000866077116068235,-0.024177247708864275
3.2,-0.00039056138064559115,0.0006131842764082511,-0.0011120362571341435
3.22,-0.000376812222961451,0.0008471254623758697,0.024506154853895994
3.24,-0.00035463215061976077,0.001387698377962842,0.02955113670480119
3.26,-0.0003206630419369912,0.0020244581794417304,0.034124843443087555
3.28,-0.00027450198037018615,0.0025339944417064287,0.016828782783382103
3.3,-0.00022287451671247909,0.002507842837409382,-0.01944394321308686
3.32,-0.00017787131223754546,0.0019292344285521414,-0.038416897672637264
3.34,-0.00014693380503203512,0.001166326200448648,-0.03787392513771217
3.36,-0.0001299219395885208,0.000597866667006971,-0.01897202820645553
3.38,-0.0001192543336869369,0.0005941278332881998,0.01859814483457838
3.4,-0.00010191109815048308,0.0012272482155458876,0.04471389339119039
3.42,-6.93681380434244e-05,0.0019798086510551234,0.030542150159733075
3.44,-2.550013421504448e-05,0.002315161770549412,0.002993161789695726
3.46,2.0364510202863448e-05,0.002219441503690407,-0.012565188475596253
3.48,6.272950833131074e-05,0.002041518596642242,-0.005227102229220338
3.5,0.00010313367198242686,0.002029858376675136,0.004061080232509656
3.52,0.00014463545172492274,0.00212493940569901,0.005447022669877835
3.54,0.0001884919674003261,0.0022741283132137083,0.00947186808159194
3.56,0.0002367707194337449,0.0025988374977694777,0.02299905037398493
3.58,0.0002929799060921442,0.003003712499481098,0.01748844979717699
3.6,0.0003561597377806099,0.003294665256335895,0.011606825888302518
3.62,0.0004240404398552453,0.0034767065396404933,0.006597302442157187
3.64,0.000494221419006775,0.003507760769026898,-0.0034918795035168465
3.66,0.000563804811570127,0.003456906141484173,-0.0015935832507559455
3.68,0.000632734849155444,0.0034416291873367627,6.588783601488036e-05
3.7,0.0006999222182745323,0.0031941881148295653,-0.02480999508673476
3.72,0.0007564892261025899,0.0023447748954168587,-0.06013132685453607
3.74,0.0007902181940658212,0.0009711086721963309,-0.07723529546751677
3.76,0.0007941117871961052,-0.0005858254201749059,-0.07845811376960694
3.78,0.0007707497338908123,-0.001548076017748026,-0.017766945987705007
3.8,0.0007387199705048211,-0.0015306430125255775,0.019510246509949904
3.82,0.0007116630904174805,-0.0011923484531494314,0.014319209427664745
3.84,0.000690833817189163,-0.0008828861722254223,0.016627018664736135
3.86,0.0006764716951224199,-0.0005548161522079828,0.01617998333700788
3.88,0.0006691605502635147,-0.00014883925778989073,0.02441770610480136
3.9,0.0006720881980394345,0.0004926486209197407,0.03973108176616178
3.92,0.0006878113574074545,0.000975865845701897,0.008590640712053803
3.94,0.000706108751592274,0.0007069710291986031,-0.03548012236238326
3.96,0.0007137431625833259,8.60208138844013e-05,-0.026614899169036952
3.98,0.0007103113558773207,-0.0004206636419792066,-0.024053546417323823
4.0,0.000697420707210493,-0.0008517345518925,-0.019053544574005443
4.02,0.0006791201212208457,-0.0008510833489220284,0.019118664871052626
4.04,0.0006681107185463054,-0.00014043035204751002,0.05194663481639924
4.06,0.0006751062511269526,0.0008107242430280976,0.04316882469116153
4.08,0.000697849793905745,0.001358394683851042,0.011598219391132886
4.1,0.0007271349140607356,0.0015599964616351714,0.008561958387279956
4.12,0.000761553937965896,0.0019572410786309214,0.03116250331229493
4.14,0.0008059078926163768,0.0024269860071873327,0.015811989543346065
4.16,0.000855091326706151,0.0023654232036580073,-0.021968269896278585
4.18,0.0008985339262606427,0.002005226224820506,-0.014051427987471575
4.2,0.0009364306644827041,0.0018145725635429126,-0.005013938140287904
4.22,0.0009705391906976205,0.0015372731865545275,-0.02271599955855072
4.24,0.0009953073386731604,0.0008678358188074435,-0.0442277372161578
4.26,0.0010042911357972181,5.417530315533599e-05,-0.03713831434905295
4.28,0.0009979286977271295,-0.0006913331733334313,-0.03741253329982376
4.3,0.0009761383742921896,-0.001511756835575871,-0.04462983292442028
4.32,0.0009364184451728529,-0.002488177367504569,-0.05301222026844947
4.34,0.0008774947143350394,-0.0033320826879784118,-0.031378311778934645
4.36,0.00080888072139746,-0.003314150446890735,0.03317153588770245
4.38,0.0007511029392147206,-0.00237008179250646,0.061235329550725186
4.4,0.0007154285614604584,-0.0012233463736336548,0.05343821233655539
4.42,0.0007008522439467912,-0.00027413700314833075,0.04148272471197705
4.44,0.0007042156050308327,0.0006379509217831202,0.04972606778116805
4.46,0.0007270560352045872,0.0016529020046852565,0.051769040509045565
4.48,0.0007687766904496178,0.002434603872293612,0.026401146251789798
4.5,0.0008200772279520151,0.0025618614182544826,-0.013675391655702774
4.52,0.0008681571063206037,0.0022250128353363584,-0.020009466636109665
4.54,0.0009094458327943406,0.001943377966748928,-0.008154020222633517
4.56,0.0009462433903466463,0.0017144179015743577,-0.01474198629482368
4.58,0.00097762738246657,0.0014261828777880395,-0.014081516083808211
4.6,0.0010042242381404793,0.00127797775634844,-0.0007389960601518316
4.62,0.0010285645414765514,0.0011024799483154186,-0.016810784743150353
4.64,0.0010456992265098068,0.0005333507057889832,-0.04010213950949326
4.66,0.0010470502015822876,-0.0004630337556109021,-0.05953630663049528
4.68,0.0010255301713168704,-0.0017065739622858297,-0.06481771403699746
4.7,0.0009791768951434641,-0.0028916663610693335,-0.0536915258413529
4.72,0.0009092270785641382,-0.004172224506346674,-0.07436428868638102
4.74,0.0008095996693856028,-0.005856019477223175,-0.09401520840126902
4.76,0.0006743542024911305,-0.00763462899571182,-0.08384574344759511
4.78,0.0005080044981107828,-0.008844740231152552,-0.037165380096477255
4.8,0.00032606790013507225,-0.009229355433086716,-0.001296140096938379
4.82,0.00014252739575526898,-0.009059403389827676,0.018291344422842797
4.84,-3.3925924639425225e-05,-0.008532104723777204,0.03443852218220463
4.86,-0.0001982716852670069,-0.007932039868404893,0.02556796335502676
4.88,-0.00035397668327255473,-0.0077473495975726525,-0.007098936271802354
4.9,-0.0005121327659452909,-0.00815772384304711,-0.03393848827564301
4.92,-0.0006821460917199755,-0.008847166297352035,-0.03500575715484944
4.94,-0.0008656175526230098,-0.009476328969202584,-0.027910510030204925
4.96,-0.0010599011762594517,-0.00991078050675908,-0.01553464372544441
4.98,-0.001260777400100717,-0.010154526125417177,-0.008839918140365121
5.0,-0.0014637584628913868,-0.010049707986362476,0.019321732045835892
5.02,-0.0016586649722492763,-0.009329777751416813,0.05267129144873032
5.04,-0.0018326457361511625,-0.0079642719969366,0.0838792839992909
5.06,-0.001973121000311869,-0.005981538470225732,0.11439406867179563
5.08,-0.0020687435098573075,-0.0035242401780822686,0.1313357605425508
5.1,-0.002112057799782243,-0.0007620207380012728,0.14488618346554882
5.12,-0.0021004260827141913,0.0018199372015547763,0.11330961049005608
5.14,-0.0020438167867469453,0.003718423887076827,0.07653905806214882
5.16,-0.001954715763165575,0.0051629151824303665,0.06791007147320517
5.18,-0.0018381959346040887,0.0064730432046301535,0.06310273074677378
5.2,-0.0016969166507855738,0.007614778856049202,0.05107083439513064
5.22,-0.001535948283272796,0.00840498907086696,0.027950187086644984
5.24,-0.0013646642037212478,0.008603131920131887,-0.008135902160152322
5.26,-0.0011958981868656275,0.008189997709680782,-0.03317751888495841
5.28,-0.001036888545933991,0.007803225909233474,-0.005499661159772209
5.3,-0.0008800916808627314,0.007968074553819754,0.02198452561840011
5.32,-0.0007163590445340756,0.008403901085474839,0.021598127547108364
5.34,-0.0005441655570807274,0.008805239671581483,0.0185357310635557
5.36,-0.00036434035746912694,0.009177943287941547,0.018734630572450516
5.38,-0.0001781485193849558,0.009385542831018074,0.0020253237352019214
5.4,8.13695509155954e-06,0.009151482272089137,-0.025431379628096207
5.42,0.0001839056152088156,0.008316648269691099,-0.05805202061170819
5.44,0.00033810096324788166,0.007076525872594788,-0.06596021909792302
5.46,0.0004683631581058388,0.00604587967448323,-0.03710440071323321
5.48,0.0005827356442470054,0.005435157579340847,-0.02396780880100532
5.5,0.0006866787460293602,0.004960828196681579,-0.023465129464921634
5.52,0.0007810697551320954,0.0044716462666963604,-0.02545306353360046
5.54,0.000865080712286438,0.00391288167509467,-0.030423395626568595
5.56,0.0009361355451670086,0.0031366955381619335,-0.047195218066705166
